#F kirchhoff.spec 

#S  1 kirchhoff 
#N 3 
#L Z[m]  intensityCoh  phaseCoh
  -4.00000000000e-03    2.60033928389e+01   -1.81489887212e-01 
  -3.99199199199e-03    2.60437180048e+01   -1.76247953696e-01 
  -3.98398398398e-03    3.41899561525e+01   -1.20216833348e-01 
  -3.97597597598e-03    5.05202859415e+01    3.38118390832e-02 
  -3.96796796797e-03    7.50930915319e+01    2.67454787255e-01 
  -3.95995995996e-03    1.07946658921e+02    5.52569596137e-01 
  -3.95195195195e-03    1.49098918814e+02    8.69673343022e-01 
  -3.94394394394e-03    1.98547239056e+02    1.20703170926e+00 
  -3.93593593594e-03    2.56268266044e+02    1.55762760375e+00 
  -3.92792792793e-03    3.22217817008e+02    1.91714211944e+00 
  -3.91991991992e-03    3.96330821997e+02    2.28281715761e+00 
  -3.91191191191e-03    4.78521318650e+02    2.65282640168e+00 
  -3.90390390390e-03    5.68682498248e+02    3.02591997151e+00 
  -3.89589589590e-03    6.66686803559e+02   -2.88196822400e+00 
  -3.88788788789e-03    7.72386080547e+02   -2.50510443764e+00 
  -3.87987987988e-03    8.85611780713e+02   -2.12714501766e+00 
  -3.87187187187e-03    1.00617521737e+03   -1.74844537466e+00 
  -3.86386386386e-03    1.13386787197e+03   -1.36927845264e+00 
  -3.85585585586e-03    1.26846175533e+03   -9.89857182262e-01 
  -3.84784784785e-03    1.40970981705e+03   -6.10350027129e-01 
  -3.83983983984e-03    1.55734640821e+03   -2.30891962264e-01 
  -3.83183183183e-03    1.71108779158e+03    1.48407627367e-01 
  -3.82382382382e-03    1.87063270451e+03    5.27459174432e-01 
  -3.81581581582e-03    2.03566296457e+03    9.06188642733e-01 
  -3.80780780781e-03    2.20584413021e+03    1.28453430400e+00 
  -3.79979979980e-03    2.38082619688e+03    1.66244428104e+00 
  -3.79179179179e-03    2.56024434894e+03    2.03987465537e+00 
  -3.78378378378e-03    2.74371974553e+03    2.41678799207e+00 
  -3.77577577578e-03    2.93086035222e+03    2.79315218065e+00 
  -3.76776776777e-03    3.12126181124e+03   -3.11424579275e+00 
  -3.75975975976e-03    3.31450835138e+03   -2.73905935376e+00 
  -3.75175175175e-03    3.51017373288e+03   -2.36449477716e+00 
  -3.74374374374e-03    3.70782222048e+03   -1.99057044100e+00 
  -3.73573573574e-03    3.90700960102e+03   -1.61730252956e+00 
  -3.72772772773e-03    4.10728421985e+03   -1.24470535958e+00 
  -3.71971971972e-03    4.30818804357e+03   -8.72791648973e-01 
  -3.71171171171e-03    4.50925776202e+03   -5.01572742934e-01 
  -3.70370370370e-03    4.71002589221e+03   -1.31058802215e-01 
  -3.69569569570e-03    4.91002192130e+03    2.38741037940e-01 
  -3.68768768769e-03    5.10877345256e+03    6.07818532973e-01 
  -3.67967967968e-03    5.30580737246e+03    9.76166214797e-01 
  -3.67167167167e-03    5.50065103198e+03    1.34377729356e+00 
  -3.66366366366e-03    5.69283342883e+03    1.71064557368e+00 
  -3.65565565566e-03    5.88188640555e+03    2.07676538137e+00 
  -3.64764764765e-03    6.06734584075e+03    2.44213150156e+00 
  -3.63963963964e-03    6.24875285009e+03    2.80673912350e+00 
  -3.63163163163e-03    6.42565498017e+03   -3.11260151442e+00 
  -3.62362362362e-03    6.59760739341e+03   -2.74952393771e+00 
  -3.61561561562e-03    6.76417405147e+03   -2.38721731588e+00 
  -3.60760760761e-03    6.92492888644e+03   -2.02568526640e+00 
  -3.59959959960e-03    7.07945694990e+03   -1.66493119112e+00 
  -3.59159159159e-03    7.22735555718e+03   -1.30495830211e+00 
  -3.58358358358e-03    7.36823539682e+03   -9.45769645221e-01 
  -3.57557557558e-03    7.50172162700e+03   -5.87368121159e-01 
  -3.56756756757e-03    7.62745494040e+03   -2.29756504704e-01 
  -3.55955955956e-03    7.74509260985e+03    1.27062537677e-01 
  -3.55155155155e-03    7.85430949087e+03    4.83086431673e-01 
  -3.54354354354e-03    7.95479898980e+03    8.38312679935e-01 
  -3.53553553554e-03    8.04627400777e+03    1.19273884804e+00 
  -3.52752752753e-03    8.12846782682e+03    1.54636255110e+00 
  -3.51951951952e-03    8.20113496449e+03    1.89918144123e+00 
  -3.51151151151e-03    8.26405199050e+03    2.25119319523e+00 
  -3.50350350350e-03    8.31701827571e+03    2.60239550265e+00 
  -3.49549549550e-03    8.35985671215e+03    2.95278605421e+00 
  -3.48748748749e-03    8.39241436909e+03   -2.98082277706e+00 
  -3.47947947948e-03    8.41456309650e+03   -2.63206271866e+00 
  -3.47147147147e-03    8.42620007816e+03   -2.28412145357e+00 
  -3.46346346346e-03    8.42724833059e+03   -1.93700140354e+00 
  -3.45545545546e-03    8.41765712336e+03   -1.59070504896e+00 
  -3.44744744745e-03    8.39740236085e+03   -1.24523494171e+00 
  -3.43943943944e-03    8.36648689305e+03   -9.00593719192e-01 
  -3.43143143143e-03    8.32494075411e+03   -5.56784118858e-01 
  -3.42342342342e-03    8.27282135842e+03   -2.13808994062e-01 
  -3.41541541542e-03    8.21021360110e+03    1.28328669022e-01 
  -3.40740740741e-03    8.13722991047e+03    4.69625733127e-01 
  -3.39939939940e-03    8.05401024283e+03    8.10078889443e-01 
  -3.39139139139e-03    7.96072197678e+03    1.14968463578e+00 
  -3.38338338338e-03    7.85755977762e+03    1.48843925174e+00 
  -3.37537537538e-03    7.74474536108e+03    1.82633877191e+00 
  -3.36736736737e-03    7.62252720657e+03    2.16337895522e+00 
  -3.35935935936e-03    7.49118018775e+03    2.49955525109e+00 
  -3.35135135135e-03    7.35100516572e+03    2.83486276136e+00 
  -3.34334334334e-03    7.20232846394e+03   -3.11388911041e+00 
  -3.33533533534e-03    7.04550132731e+03   -2.78033547884e+00 
  -3.32732732733e-03    6.88089927362e+03   -2.44766787573e+00 
  -3.31931931932e-03    6.70892140547e+03   -2.11589308499e+00 
  -3.31131131131e-03    6.52998965091e+03   -1.78501852277e+00 
  -3.30330330330e-03    6.34454793241e+03   -1.45505232161e+00 
  -3.29529529530e-03    6.15306128158e+03   -1.12600342768e+00 
  -3.28728728729e-03    5.95601489366e+03   -7.97881713311e-01 
  -3.27927927928e-03    5.75391312029e+03   -4.70698108785e-01 
  -3.27127127127e-03    5.54727840829e+03   -1.44464755932e-01 
  -3.26326326326e-03    5.33665017917e+03    1.80804811135e-01 
  -3.25525525526e-03    5.12258366118e+03    5.05095452641e-01 
  -3.24724724725e-03    4.90564867231e+03    8.28390169436e-01 
  -3.23923923924e-03    4.68642834545e+03    1.15066980159e+00 
  -3.23123123123e-03    4.46551782572e+03    1.47191266576e+00 
  -3.22322322322e-03    4.24352290324e+03    1.79209411872e+00 
  -3.21521521522e-03    4.02105862982e+03    2.11118602821e+00 
  -3.20720720721e-03    3.79874788383e+03    2.42915612612e+00 
  -3.19919919920e-03    3.57721990783e+03    2.74596721488e+00 
  -3.19119119119e-03    3.35710881273e+03    3.06157618502e+00 
  -3.18318318318e-03    3.13905206025e+03   -2.90725251735e+00 
  -3.17517517518e-03    2.92368891883e+03   -2.59420720111e+00 
  -3.16716716717e-03    2.71165889902e+03   -2.28254272586e+00 
  -3.15915915916e-03    2.50360017534e+03   -1.97234177083e+00 
  -3.15115115115e-03    2.30014799747e+03   -1.66370337175e+00 
  -3.14314314314e-03    2.10193308478e+03   -1.35674714041e+00 
  -3.13513513514e-03    1.90958002642e+03   -1.05161884112e+00 
  -3.12712712713e-03    1.72370567412e+03   -7.48497856948e-01 
  -3.11911911912e-03    1.54491753782e+03   -4.47607317571e-01 
  -3.11111111111e-03    1.37381219172e+03   -1.49228043562e-01 
  -3.10310310310e-03    1.21097368772e+03    1.46281948338e-01 
  -3.09509509510e-03    1.05697198543e+03    4.38459703610e-01 
  -3.08708708709e-03    9.12361400275e+02    7.26697140968e-01 
  -3.07907907908e-03    7.77679075506e+02    1.01018172818e+00 
  -3.07107107107e-03    6.53443477536e+02    1.28780720299e+00 
  -3.06306306306e-03    5.40152925854e+02    1.55803670579e+00 
  -3.05505505506e-03    4.38284154173e+02    1.81868979627e+00 
  -3.04704704705e-03    3.48290911700e+02    2.06660906972e+00 
  -3.03903903904e-03    2.70602604840e+02    2.29714716759e+00 
  -3.03103103103e-03    2.05622986412e+02    2.50343715061e+00 
  -3.02302302302e-03    1.53728891592e+02    2.67562446240e+00 
  -3.01501501502e-03    1.15269029082e+02    2.80115755478e+00 
  -3.00700700701e-03    9.05628274365e+01    2.86970449200e+00 
  -2.99899899900e-03    7.98993413385e+01    2.88752358562e+00 
  -2.99099099099e-03    8.35362203638e+01    2.89081071982e+00 
  -2.98298298298e-03    1.01698744886e+02    2.92657095429e+00 
  -2.97497497497e-03    1.34578929095e+02    3.01751083224e+00 
  -2.96696696697e-03    1.82334698934e+02   -3.12300464877e+00 
  -2.95895895896e-03    2.45089141272e+02   -2.94106899243e+00 
  -2.95095095095e-03    3.22929833358e+02   -2.73142862933e+00 
  -2.94294294294e-03    4.15908249930e+02   -2.50253798804e+00 
  -2.93493493493e-03    5.24039252473e+02   -2.26017554608e+00 
  -2.92692692693e-03    6.47300663960e+02   -2.00824927743e+00 
  -2.91891891892e-03    7.85632927268e+02   -1.74943125380e+00 
  -2.91091091091e-03    9.38938853666e+02   -1.48558317556e+00 
  -2.90290290290e-03    1.10708345886e+03   -1.21802963828e+00 
  -2.89489489489e-03    1.28989388856e+03   -9.47732862238e-01 
  -2.88688688689e-03    1.48715943930e+03   -6.75405645793e-01 
  -2.87887887888e-03    1.69863166691e+03   -4.01585641357e-01 
  -2.87087087087e-03    1.92402459300e+03   -1.26685130936e-01 
  -2.86286286286e-03    2.16301500181e+03    1.48974965981e-01 
  -2.85485485485e-03    2.41524283305e+03    4.25141420710e-01 
  -2.84684684685e-03    2.68031166663e+03    7.01611927180e-01 
  -2.83883883884e-03    2.95778930346e+03    9.78223027779e-01 
  -2.83083083083e-03    3.24720844062e+03    1.25484128436e+00 
  -2.82282282282e-03    3.54806743504e+03    1.53135673001e+00 
  -2.81481481481e-03    3.85983116484e+03    1.80767794936e+00 
  -2.80680680681e-03    4.18193197561e+03    2.08372833768e+00 
  -2.79879879880e-03    4.51377072630e+03    2.35944322260e+00 
  -2.79079079079e-03    4.85471790833e+03    2.63476762772e+00 
  -2.78278278278e-03    5.20411486522e+03    2.90965451817e+00 
  -2.77477477477e-03    5.56127509190e+03   -3.09912189772e+00 
  -2.76676676677e-03    5.92548561214e+03   -2.82522604792e+00 
  -2.75875875876e-03    6.29600844006e+03   -2.55187373416e+00 
  -2.75075075075e-03    6.67208212013e+03   -2.27909162685e+00 
  -2.74274274274e-03    7.05292334401e+03   -2.00690316384e+00 
  -2.73473473473e-03    7.43772862187e+03   -1.73532903674e+00 
  -2.72672672673e-03    7.82567604783e+03   -1.46438759230e+00 
  -2.71871871872e-03    8.21592711226e+03   -1.19409516702e+00 
  -2.71071071071e-03    8.60762857672e+03   -9.24466366636e-01 
  -2.70270270270e-03    8.99991441746e+03   -6.55514301351e-01 
  -2.69469469469e-03    9.39190781077e+03   -3.87250784443e-01 
  -2.68668668669e-03    9.78272316444e+03   -1.19686501009e-01 
  -2.67867867868e-03    1.01714682148e+04    1.47168848164e-01 
  -2.67067067067e-03    1.05572461417e+04    4.13306422908e-01 
  -2.66266266266e-03    1.09391577277e+04    6.78718137786e-01 
  -2.65465465465e-03    1.13163035571e+04    9.43396570121e-01 
  -2.64664664665e-03    1.16877862238e+04    1.20733488014e+00 
  -2.63863863864e-03    1.20527125757e+04    1.47052674145e+00 
  -2.63063063063e-03    1.24101959694e+04    1.73296628008e+00 
  -2.62262262262e-03    1.27593585330e+04    1.99464802093e+00 
  -2.61461461461e-03    1.30993334476e+04    2.25556684030e+00 
  -2.60660660661e-03    1.34292672052e+04    2.51571792368e+00 
  -2.59859859860e-03    1.37483218866e+04    2.77509672849e+00 
  -2.59059059059e-03    1.40556774202e+04    3.03369895017e+00 
  -2.58258258258e-03    1.43505338136e+04   -2.99166481536e+00 
  -2.57457457457e-03    1.46321133890e+04   -2.73462787053e+00 
  -2.56656656657e-03    1.48996629584e+04   -2.47837928436e+00 
  -2.55855855856e-03    1.51524560031e+04   -2.22292268696e+00 
  -2.55055055055e-03    1.53897947858e+04   -1.96826159815e+00 
  -2.54254254254e-03    1.56110124386e+04   -1.71439944747e+00 
  -2.53453453453e-03    1.58154749874e+04   -1.46133959306e+00 
  -2.52652652653e-03    1.60025833349e+04   -1.20908533959e+00 
  -2.51851851852e-03    1.61717751805e+04   -9.57639955430e-01 
  -2.51051051051e-03    1.63225268786e+04   -7.07006689402e-01 
  -2.50250250250e-03    1.64543552052e+04   -4.57188787035e-01 
  -2.49449449449e-03    1.65668190924e+04   -2.08189506743e-01 
  -2.48648648649e-03    1.66595212380e+04    3.99878640313e-02 
  -2.47847847848e-03    1.67321096663e+04    2.87339992488e-01 
  -2.47047047047e-03    1.67842791776e+04    5.33863483819e-01 
  -2.46246246246e-03    1.68157727171e+04    7.79554863987e-01 
  -2.45445445445e-03    1.68263826278e+04    1.02441056190e+00 
  -2.44644644645e-03    1.68159518380e+04    1.26842689061e+00 
  -2.43843843844e-03    1.67843748945e+04    1.51160002741e+00 
  -2.43043043043e-03    1.67315989257e+04    1.75392599253e+00 
  -2.42242242242e-03    1.66576244719e+04    1.99540062652e+00 
  -2.41441441441e-03    1.65625062054e+04    2.23601956532e+00 
  -2.40640640641e-03    1.64463535263e+04    2.47577821355e+00 
  -2.39839839840e-03    1.63093310416e+04    2.71467171494e+00 
  -2.39039039039e-03    1.61516589160e+04    2.95269491995e+00 
  -2.38238238238e-03    1.59736130917e+04   -3.09334295714e+00 
  -2.37437437437e-03    1.57755253911e+04   -2.85707714953e+00 
  -2.36636636637e-03    1.55577834675e+04   -2.62169922520e+00 
  -2.35835835836e-03    1.53208306429e+04   -2.38721590798e+00 
  -2.35035035035e-03    1.50651656050e+04   -2.15363444098e+00 
  -2.34234234234e-03    1.47913419512e+04   -1.92096264917e+00 
  -2.33433433433e-03    1.44999676341e+04   -1.68920901136e+00 
  -2.32632632633e-03    1.41917042369e+04   -1.45838274137e+00 
  -2.31831831832e-03    1.38672661355e+04   -1.22849388082e+00 
  -2.31031031031e-03    1.35274194958e+04   -9.99553405254e-01 
  -2.30230230230e-03    1.31729811724e+04   -7.71573346318e-01 
  -2.29429429429e-03    1.28048174472e+04   -5.44566932346e-01 
  -2.28628628629e-03    1.24238426433e+04   -3.18548751732e-01 
  -2.27827827828e-03    1.20310176039e+04   -9.35349418528e-02 
  -2.27027027027e-03    1.16273480451e+04    1.30456589777e-01 
  -2.26226226226e-03    1.12138827779e+04    3.53405906390e-01 
  -2.25425425425e-03    1.07917118086e+04    5.75290737903e-01 
  -2.24624624625e-03    1.03619643109e+04    7.96086120568e-01 
  -2.23823823824e-03    9.92580648496e+03    1.01576396983e+00 
  -2.23023023023e-03    9.48443929381e+03    1.23429257037e+00 
  -2.22222222222e-03    9.03909609302e+03    1.45163596503e+00 
  -2.21421421421e-03    8.59104015391e+03    1.66775321784e+00 
  -2.20620620621e-03    8.14156207385e+03    1.88259752058e+00 
  -2.19819819820e-03    7.69197709574e+03    2.09611510393e+00 
  -2.19019019019e-03    7.24362232821e+03    2.30824390100e+00 
  -2.18218218218e-03    6.79785387960e+03    2.51891189751e+00 
  -2.17417417417e-03    6.35604390601e+03    2.72803508027e+00 
  -2.16616616617e-03    5.91957758295e+03    2.93551486842e+00 
  -2.15815815816e-03    5.48985000429e+03    3.14123487307e+00 
  -2.15015015015e-03    5.06826301396e+03   -2.93812853024e+00 
  -2.14214214214e-03    4.65622197790e+03   -2.73637025511e+00 
  -2.13413413413e-03    4.25513250826e+03   -2.53687517499e+00 
  -2.12612612613e-03    3.86639712793e+03   -2.33988579596e+00 
  -2.11811811812e-03    3.49141191545e+03   -2.14569927066e+00 
  -2.11011011011e-03    3.13156309990e+03   -1.95468292125e+00 
  -2.10210210210e-03    2.78822364164e+03   -1.76729498124e+00 
  -2.09409409409e-03    2.46274979117e+03   -1.58411248451e+00 
  -2.08608608609e-03    2.15647764014e+03   -1.40586890197e+00 
  -2.07807807808e-03    1.87071966889e+03   -1.23350487446e+00 
  -2.07007007007e-03    1.60676130220e+03   -1.06823592542e+00 
  -2.06206206206e-03    1.36585747738e+03   -9.11640449274e-01 
  -2.05405405405e-03    1.14922923409e+03   -7.65767106615e-01 
  -2.04604604605e-03    9.58060333576e+02   -6.33246976280e-01 
  -2.03803803804e-03    7.93493918829e+02   -5.17359062772e-01 
  -2.03003003003e-03    6.56629217190e+02   -4.21914286739e-01 
  -2.02202202202e-03    5.48518298271e+02   -3.50673290900e-01 
  -2.01401401401e-03    4.70162894819e+02   -3.05872444814e-01 
  -2.00600600601e-03    4.22511295211e+02   -2.85698088242e-01 
  -1.99799799800e-03    4.06455310878e+02   -2.81901641487e-01 
  -1.98998998999e-03    4.22827332744e+02   -2.80483694422e-01 
  -1.98198198198e-03    4.72397481427e+02   -2.66795043606e-01 
  -1.97397397397e-03    5.55870858109e+02   -2.31211908173e-01 
  -1.96596596597e-03    6.73884906664e+02   -1.70757532504e-01 
  -1.95795795796e-03    8.27006892745e+02   -8.70770753410e-02 
  -1.94994994995e-03    1.01573150682e+03    1.62224470973e-02 
  -1.94194194194e-03    1.24047859688e+03    1.35270889859e-01 
  -1.93393393393e-03    1.50159104358e+03    2.66662121993e-01 
  -1.92592592593e-03    1.79933277797e+03    4.07635697922e-01 
  -1.91791791792e-03    2.13388695327e+03    5.56033395944e-01 
  -1.90990990991e-03    2.50535427164e+03    7.10190532050e-01 
  -1.90190190190e-03    2.91375147865e+03    8.68825678525e-01 
  -1.89389389389e-03    3.35901002647e+03    1.03094841926e+00 
  -1.88588588589e-03    3.84097491045e+03    1.19578773212e+00 
  -1.87787787788e-03    4.35940369130e+03    1.36273813183e+00 
  -1.86986986987e-03    4.91396569609e+03    1.53131967075e+00 
  -1.86186186186e-03    5.50424142006e+03    1.70114830766e+00 
  -1.85385385385e-03    6.12972210788e+03    1.87191388969e+00 
  -1.84584584585e-03    6.78980954294e+03    2.04336369975e+00 
  -1.83783783784e-03    7.48381604150e+03    2.21529006862e+00 
  -1.82982982983e-03    8.21096464098e+03    2.38752096976e+00 
  -1.82182182182e-03    8.97038950089e+03    2.55991281925e+00 
  -1.81381381381e-03    9.76113651383e+03    2.73234491469e+00 
  -1.80580580581e-03    1.05821641292e+04    2.90471510467e+00 
  -1.79779779780e-03    1.14323443843e+04    3.07693638771e+00 
  -1.78978978979e-03    1.23104641539e+04   -3.03425108639e+00 
  -1.78178178178e-03    1.32152266187e+04   -2.86254093427e+00 
  -1.77377377377e-03    1.41452529299e+04   -2.69117410612e+00 
  -1.76576576577e-03    1.50990841128e+04   -2.52019905192e+00 
  -1.75775775776e-03    1.60751831677e+04   -2.34965816361e+00 
  -1.74974974975e-03    1.70719373857e+04   -2.17958870553e+00 
  -1.74174174174e-03    1.80876608782e+04   -2.01002358113e+00 
  -1.73373373373e-03    1.91205973114e+04   -1.84099196844e+00 
  -1.72572572573e-03    2.01689228470e+04   -1.67251984966e+00 
  -1.71771771772e-03    2.12307492920e+04   -1.50463045502e+00 
  -1.70970970971e-03    2.23041274393e+04   -1.33734463624e+00 
  -1.70170170170e-03    2.33870506065e+04   -1.17068118289e+00 
  -1.69369369369e-03    2.44774583635e+04   -1.00465709084e+00 
  -1.68568568569e-03    2.55732404494e+04   -8.39287791707e-01 
  -1.67767767768e-03    2.66722408658e+04   -6.74587349727e-01 
  -1.66966966967e-03    2.77722621574e+04   -5.10568631206e-01 
  -1.66166166166e-03    2.88710698329e+04   -3.47243450856e-01 
  -1.65365365365e-03    2.99663969891e+04   -1.84622699581e-01 
  -1.64564564565e-03    3.10559490390e+04   -2.27164551277e-02 
  -1.63763763764e-03    3.21374086379e+04    1.38465920320e-01 
  -1.62962962963e-03    3.32084407072e+04    2.98915694651e-01 
  -1.62162162162e-03    3.42666976123e+04    4.58624690140e-01 
  -1.61361361361e-03    3.53098244720e+04    6.17585216200e-01 
  -1.60560560561e-03    3.63354645476e+04    7.75790009434e-01 
  -1.59759759760e-03    3.73412647689e+04    9.33232179875e-01 
  -1.58958958959e-03    3.83248813330e+04    1.08990516240e+00 
  -1.58158158158e-03    3.92839853946e+04    1.24580267289e+00 
  -1.57357357357e-03    4.02162688422e+04    1.40091866795e+00 
  -1.56556556557e-03    4.11194501147e+04    1.55524730807e+00 
  -1.55755755756e-03    4.19912800970e+04    1.70878292349e+00 
  -1.54954954955e-03    4.28295480316e+04    1.86151998228e+00 
  -1.54154154154e-03    4.36320874736e+04    2.01345306045e+00 
  -1.53353353353e-03    4.43967822691e+04    2.16457681354e+00 
  -1.52552552553e-03    4.51215725294e+04    2.31488594941e+00 
  -1.51751751752e-03    4.58044606144e+04    2.46437520194e+00 
